Time [s]; Voltage [V]; Current [A]
1723052738044910000; 4.656043359375; 0.0
1723052738044920000; 4.65721806640625; 0.0
1723052738044930000; 4.65830107421875; 0.0
1723052738044940000; 4.6592978515625; 0.0
1723052738044950000; 4.6602146484375; 0.0
1723052738044960000; 4.66105400390625; 0.0
1723052738044970000; 4.66183623046875; 0.0
1723052738044980000; 4.66255283203125; 0.0
1723052738044990000; 4.66321494140625; 0.0
1723052738045000000; 4.663833203125; 0.0
1723052738045010000; 4.664402734375; 0.0
1723052738045020000; 4.6649271484375; 0.0
1723052738045030000; 4.66540751953125; 0.0
1723052738045040000; 4.66585888671875; 0.0
1723052738045050000; 4.66627685546875; 0.0
1723052738045060000; 4.66666005859375; 0.0
1723052738045070000; 4.66702431640625; 0.0
1723052738045080000; 4.66735263671875; 0.0
1723052738045090000; 4.66766552734375; 0.0
1723052738045100000; 4.66794921875; 0.0
1723052738045110000; 4.66820849609375; 0.0
1723052738045120000; 4.66844267578125; 0.0
1723052738045130000; 4.6686689453125005; 0.0
1723052738045140000; 4.66887373046875; 0.0
1723052738045150000; 4.6690707031250005; 0.0
1723052738045160000; 4.6692494140625005; 0.0
1723052738045170000; 4.66941787109375; 0.0
1723052738045180000; 4.66956748046875; 0.0
1723052738045190000; 4.669706640625; 0.0
1723052738045200000; 4.6698455078125; 0.0
1723052738045210000; 4.669964453125; 0.0
1723052738045220000; 4.6700771484375005; 0.0
1723052738045230000; 4.67017646484375; 0.0
1723052738045240000; 4.6702349609375; 0.0
1723052738045250000; 4.67004755859375; 0.0
1723052738045260000; 4.6690263671875; 0.0
1723052738045270000; 4.6672215820312495; 0.0
1723052738045280000; 4.6646255859375; 0.0
1723052738045290000; 4.6609013671875; 1.8208821614583334e-07
1723052738045300000; 4.647308203125; 0.0003757537841796875
1723052738045310000; 4.637294921875; 0.00044743855794270835
1723052738045320000; 4.630506640625; 0.00043647969563802085
1723052738045330000; 4.62497412109375; 0.00042780049641927086
1723052738045340000; 4.61980908203125; 0.0004281595865885417
1723052738045350000; 4.6148189453125; 0.00043291829427083336
1723052738045360000; 4.60983359375; 0.0004430541992187501
1723052738045370000; 4.604807324218751; 0.0004547648111979167
1723052738045380000; 4.599839453125; 0.0004666117350260417
1723052738045390000; 4.59481875; 0.00048047892252604167
1723052738045400000; 4.58983271484375; 0.0004935312906901042
1723052738045410000; 4.58479091796875; 0.0005081960042317708
1723052738045420000; 4.5797611328125; 0.0005220998128255209
1723052738045430000; 4.5747994140625; 0.0005349273681640625
1723052738045440000; 4.56976025390625; 0.0005503397623697917
1723052738045450000; 4.564769140625; 0.0005632171630859375
1723052738045460000; 4.5597638671875; 0.0005770874023437501
1723052738045470000; 4.554758984375; 0.0005908376057942708
1723052738045480000; 4.54976708984375; 0.0006040140787760416
1723052738045490000; 4.54474541015625; 0.000617938232421875
1723052738045500000; 4.53976796875; 0.0006304799397786459
1723052738045510000; 4.534791796875; 0.0006432474772135417
1723052738045520000; 4.529775195312499; 0.0006573883056640625
1723052738045530000; 4.52477197265625; 0.0006702290852864584
1723052738045540000; 4.5197703124999995; 0.0006833984375000001
1723052738045550000; 4.51478125; 0.0006959035237630208
1723052738045560000; 4.509773046875; 0.0007090108235677084
1723052738045570000; 4.5047357421875; 0.0007219889322916667
1723052738045580000; 4.49972216796875; 0.0007343465169270834
1723052738045590000; 4.494728125; 0.0007467417399088542
1723052738045600000; 4.4897400390625; 0.0007588002522786459
1723052738045610000; 4.484735546875; 0.0007711435953776043
1723052738045620000; 4.4797159179687505; 0.0007830546061197917
1723052738045630000; 4.4747310546875; 0.0007947265625000001
1723052738045640000; 4.46972080078125; 0.0008065694173177083
1723052738045650000; 4.46474814453125; 0.0008178395589192709
1723052738045660000; 4.45975498046875; 0.0008294860839843752
1723052738045670000; 4.45476767578125; 0.0008405731201171876
1723052738045680000; 4.44978818359375; 0.0008524241129557291
1723052738045690000; 4.4447595703125; 0.0008639200846354167
1723052738045700000; 4.43977548828125; 0.0008750528971354167
1723052738045710000; 4.43476357421875; 0.0008864969889322917
1723052738045720000; 4.42973388671875; 0.0008976725260416667
1723052738045730000; 4.42472080078125; 0.0009086975097656251
1723052738045740000; 4.4196946289062495; 0.0009196695963541668
1723052738045750000; 4.414709765625; 0.0009300374348958334
1723052738045760000; 4.40969599609375; 0.0009410044352213542
1723052738045770000; 4.4046966796875004; 0.0009513814290364583
1723052738045780000; 4.3997087890625; 0.0009616831461588542
1723052738045790000; 4.394694921875; 0.0009721323649088542
1723052738045800000; 4.3897031250000005; 0.0009822123209635417
1723052738045810000; 4.38469169921875; 0.0009925323486328127
1723052738045820000; 4.3797427734375; 0.0010015828450520834
1723052738045830000; 4.37474853515625; 0.0010123046875000002
1723052738045840000; 4.36971640625; 0.0010224873860677083
1723052738045850000; 4.36473427734375; 0.001031853230794271
1723052738045860000; 4.3597260742187505; 0.00104215087890625
1723052738045870000; 4.354710546875; 0.0010517191569010416
1723052738045880000; 4.3496953125; 0.00106151123046875
1723052738045890000; 4.34466064453125; 0.0010714528401692708
1723052738045900000; 4.339666015625; 0.0010805613199869793
1723052738045910000; 4.3346587890625; 0.0010902252197265627
1723052738045920000; 4.32965751953125; 0.001099144490559896
1723052738045930000; 4.32468212890625; 0.001108043416341146
1723052738045940000; 4.319652734375; 0.001117469278971354
1723052738045950000; 4.3146659179687505; 0.0011261118570963541
1723052738045960000; 4.30965712890625; 0.0011351409912109375
1723052738045970000; 4.30466123046875; 0.0011437357584635416
1723052738045980000; 4.2997158203125005; 0.0011520375569661458
1723052738045990000; 4.2946998046875; 0.0011612772623697917
1723052738046000000; 4.2896994140625; 0.001169835408528646
1723052738046010000; 4.28468193359375; 0.0011786712646484376
1723052738046020000; 4.27967236328125; 0.0011871297200520834
1723052738046030000; 4.2746953125; 0.0011954833984375
1723052738046040000; 4.26964716796875; 0.001204279581705729
1723052738046050000; 4.26461015625; 0.0012126027425130208
1723052738046060000; 4.2596087890625; 0.001220684814453125
1723052738046070000; 4.2546256835937495; 0.0012286855061848958
1723052738046080000; 4.2496548828125; 0.0012366424560546875
1723052738046090000; 4.24463125; 0.001244749959309896
1723052738046100000; 4.23960126953125; 0.0012528025309244792
1723052738046110000; 4.23460322265625; 0.001260454305013021
1723052738046120000; 4.2296134765625; 0.0012681009928385417
1723052738046130000; 4.22466015625; 0.0012754628499348957
1723052738046140000; 4.219686328125; 0.0012831339518229168
1723052738046150000; 4.21466142578125; 0.001290935262044271
1723052738046160000; 4.20965419921875; 0.0012984588623046875
1723052738046170000; 4.204640234375001; 0.001305949910481771
1723052738046180000; 4.1996513671875; 0.0013132954915364584
1723052738046190000; 4.19463251953125; 0.0013209737141927083
1723052738046200000; 4.1895791015625; 0.0013283396402994792
1723052738046210000; 4.18460205078125; 0.001335400390625
1723052738046220000; 4.1795974609375; 0.0013427775065104166
1723052738046230000; 4.17461787109375; 0.0013496236165364583
1723052738046240000; 4.16961123046875; 0.0013566935221354167
1723052738046250000; 4.16458896484375; 0.0013636128743489584
1723052738046260000; 4.1595990234375; 0.001370427449544271
1723052738046270000; 4.15459990234375; 0.0013771250406901042
1723052738046280000; 4.1496216796875; 0.0013836741129557293
1723052738046290000; 4.14467236328125; 0.0013900919596354167
1723052738046300000; 4.139652734375; 0.001397112019856771
1723052738046310000; 4.134639062500001; 0.0014036275227864584
1723052738046320000; 4.12965595703125; 0.00141009521484375
1723052738046330000; 4.12466787109375; 0.0014166219075520833
1723052738046340000; 4.11963935546875; 0.0014231608072916668
1723052738046350000; 4.1146001953125; 0.0014298583984375002
1723052738046360000; 4.109577343750001; 0.0014362091064453126
1723052738046370000; 4.1046033203125; 0.0014424580891927083
1723052738046380000; 4.099627734375; 0.001448614501953125
1723052738046390000; 4.094623730468751; 0.0014547912597656252
1723052738046400000; 4.08959052734375; 0.001460887654622396
1723052738046410000; 4.0845940429687495; 0.001466943359375
1723052738046420000; 4.07959453125; 0.0014728607177734376
1723052738046430000; 4.0746265625; 0.0014787312825520836
1723052738046440000; 4.0696203125; 0.001484539794921875
1723052738046450000; 4.064654296875; 0.0014901194254557293
1723052738046460000; 4.0596515625; 0.0014960123697916666
1723052738046470000; 4.054654882812501; 0.0015016377766927083
1723052738046480000; 4.04967177734375; 0.0015074228922526043
1723052738046490000; 4.04464052734375; 0.0015131123860677085
1723052738046500000; 4.03959853515625; 0.0015188639322916667
1723052738046510000; 4.03457353515625; 0.0015245890299479168
1723052738046520000; 4.02956796875; 0.0015301523844401044
1723052738046530000; 4.024603125; 0.0015356872558593751
1723052738046540000; 4.01960009765625; 0.0015411224365234376
1723052738046550000; 4.01458525390625; 0.0015464548746744794
1723052738046560000; 4.00956962890625; 0.001551671346028646
1723052738046570000; 4.00458955078125; 0.001556944783528646
1723052738046580000; 3.9995999023437503; 0.0015622599283854168
1723052738046590000; 3.99458125; 0.0015674092610677085
1723052738046600000; 3.9896400390625; 0.0015721638997395835
1723052738046610000; 3.98463017578125; 0.0015774658203125
1723052738046620000; 3.9796071289062502; 0.0015823669433593752
1723052738046630000; 3.9746462890625; 0.0015873443603515627
1723052738046640000; 3.96962607421875; 0.0015924387613932291
1723052738046650000; 3.9645935546875; 0.0015973836263020835
1723052738046660000; 3.95958125; 0.001602362060546875
1723052738046670000; 3.95457060546875; 0.0016073394775390625
1723052738046680000; 3.9496145507812503; 0.0016121124267578126
1723052738046690000; 3.9445724609375; 0.0016171020507812501
1723052738046700000; 3.9395552734375; 0.0016217132568359376
1723052738046710000; 3.9345766601562504; 0.0016263661702473958
1723052738046720000; 3.9295731445312505; 0.0016309783935546877
1723052738046730000; 3.9246078125; 0.0016354777018229168
1723052738046740000; 3.9195654296875; 0.0016401611328125002
1723052738046750000; 3.9145525390625; 0.0016447031656901042
1723052738046760000; 3.90960546875; 0.0016488972981770834
1723052738046770000; 3.90462509765625; 0.0016532786051432294
1723052738046780000; 3.8996283203125; 0.0016577534993489585
1723052738046790000; 3.8945952148437497; 0.0016622578938802085
1723052738046800000; 3.88957275390625; 0.0016666585286458336
1723052738046810000; 3.8845619140625; 0.0016709055582682293
1723052738046820000; 3.8795501953125; 0.0016753184000651042
1723052738046830000; 3.8745560546875004; 0.0016796824137369792
1723052738046840000; 3.8695552734375003; 0.0016838989257812501
1723052738046850000; 3.86453935546875; 0.001688092041015625
1723052738046860000; 3.859546484375; 0.001692193603515625
1723052738046870000; 3.854559375; 0.001696257527669271
1723052738046880000; 3.84957998046875; 0.0017002278645833334
1723052738046890000; 3.8445545898437503; 0.0017043782552083333
1723052738046900000; 3.8395326171875; 0.0017084014892578124
1723052738046910000; 3.8345742187500003; 0.0017122222900390627
1723052738046920000; 3.829635546875; 0.0017157735188802084
1723052738046930000; 3.82466552734375; 0.0017196085611979168
1723052738046940000; 3.81961435546875; 0.001723515828450521
1723052738046950000; 3.81457099609375; 0.0017273539225260417
1723052738046960000; 3.8095717773437503; 0.0017311838785807293
1723052738046970000; 3.80456572265625; 0.0017349761962890625
1723052738046980000; 3.79956123046875; 0.0017387237548828127
1723052738046990000; 3.7945647460937497; 0.0017425364176432293
1723052738047000000; 3.789533984375; 0.0017464253743489585
1723052738047010000; 3.7845341796875; 0.0017501352945963541
1723052738047020000; 3.7795578125000002; 0.0017536224365234377
1723052738047030000; 3.774584765625; 0.001757232666015625
1723052738047040000; 3.7695724609375003; 0.0017608286539713544
1723052738047050000; 3.76453935546875; 0.0017643819173177083
1723052738047060000; 3.7595266601562503; 0.0017678771972656252
1723052738047070000; 3.75460703125; 0.0017711039225260417
1723052738047080000; 3.74958671875; 0.0017744679768880208
1723052738047090000; 3.74456640625; 0.0017778177897135416
1723052738047100000; 3.7395566406250005; 0.0017812459309895835
1723052738047110000; 3.7345571289062502; 0.0017846262613932292
1723052738047120000; 3.72956962890625; 0.0017878285725911461
1723052738047130000; 3.724526171875; 0.0017910970052083333
1723052738047140000; 3.7195121093749997; 0.0017945465087890627
1723052738047150000; 3.7145224609375003; 0.001797887166341146
1723052738047160000; 3.7095386718750003; 0.0018011586507161459
1723052738047170000; 3.7045399414062503; 0.0018043792724609375
1723052738047180000; 3.6995206054687504; 0.001807598876953125
1723052738047190000; 3.69451552734375; 0.001810784912109375
1723052738047200000; 3.6895244140625; 0.00181390380859375
1723052738047210000; 3.6845345703125; 0.0018169514973958333
1723052738047220000; 3.6795327148437504; 0.0018200042724609376
1723052738047230000; 3.6745802734375004; 0.0018227478027343753
1723052738047240000; 3.6695835937499997; 0.0018256327311197917
1723052738047250000; 3.664573046875; 0.001828563435872396
1723052738047260000; 3.65956025390625; 0.0018315724690755209
1723052738047270000; 3.6545548828124996; 0.0018344492594401043
1723052738047280000; 3.6495335937499997; 0.00183743896484375
1723052738047290000; 3.64450185546875; 0.0018404266357421875
1723052738047300000; 3.6394891601562502; 0.0018433827718098961
1723052738047310000; 3.6345266601562503; 0.0018462107340494792
1723052738047320000; 3.629533984375; 0.001849089558919271
1723052738047330000; 3.62452841796875; 0.0018519276936848962
1723052738047340000; 3.6195194335937497; 0.001854692586263021
1723052738047350000; 3.6145244140624997; 0.0018574188232421875
1723052738047360000; 3.6095329101562497; 0.0018603302001953127
1723052738047370000; 3.60451796875; 0.0018630818684895834
1723052738047380000; 3.5995962890625; 0.001865605672200521
1723052738047390000; 3.5945734375000002; 0.001868199666341146
1723052738047400000; 3.58954287109375; 0.0018706675211588543
1723052738047410000; 3.5845554687499996; 0.0018731424967447917
1723052738047420000; 3.57953427734375; 0.0018756683349609377
1723052738047430000; 3.57452451171875; 0.0018782653808593751
1723052738047440000; 3.5695123046875; 0.0018809041341145835
1723052738047450000; 3.56447392578125; 0.0018835591634114586
1723052738047460000; 3.5595094726562504; 0.0018860443115234376
1723052738047470000; 3.5545095703125003; 0.001888773600260417
1723052738047480000; 3.5495048828124998; 0.0018912129720052085
1723052738047490000; 3.54452138671875; 0.0018938110351562501
1723052738047500000; 3.5394967773437505; 0.0018962646484375
1723052738047510000; 3.5345220703124998; 0.0018986236572265628
1723052738047520000; 3.52951640625; 0.0019010030110677084
1723052738047530000; 3.52449833984375; 0.001903563435872396
1723052738047540000; 3.5195664062500005; 0.0019056498209635417
1723052738047550000; 3.5145642578125003; 0.001907859293619792
1723052738047560000; 3.5095596679687504; 0.001910045369466146
1723052738047570000; 3.5045296875000003; 0.0019121897379557292
1723052738047580000; 3.4995188476562498; 0.0019144399007161458
1723052738047590000; 3.49453291015625; 0.001916700236002604
1723052738047600000; 3.48950927734375; 0.0019190480550130209
1723052738047610000; 3.484495703125; 0.0019212951660156252
1723052738047620000; 3.47951845703125; 0.0019235575358072918
1723052738047630000; 3.47453154296875; 0.001925798543294271
1723052738047640000; 3.4695306640625; 0.0019280893961588544
1723052738047650000; 3.4645147460937498; 0.0019302012125651045
1723052738047660000; 3.4595252929687503; 0.0019323140462239586
1723052738047670000; 3.4545203125; 0.0019345540364583335
1723052738047680000; 3.44950712890625; 0.0019367523193359376
1723052738047690000; 3.444524609375; 0.001938837687174479
1723052738047700000; 3.4395781249999997; 0.0019407257080078127
1723052738047710000; 3.4345896484375; 0.0019427256266276044
1723052738047720000; 3.4295614257812503; 0.0019444366455078127
1723052738047730000; 3.4245167968750003; 0.0019465006510416669
1723052738047740000; 3.419498828125; 0.0019483907063802084
1723052738047750000; 3.4144658203125; 0.0019505228678385416
1723052738047760000; 3.409443359375; 0.0019524668375651044
1723052738047770000; 3.40446826171875; 0.0019544474283854168
1723052738047780000; 3.3994287109375; 0.0019565378824869793
1723052738047790000; 3.39441953125; 0.0019585296630859374
1723052738047800000; 3.3894144531249997; 0.0019604461669921877
1723052738047810000; 3.38442197265625; 0.0019624369303385416
1723052738047820000; 3.37944248046875; 0.001964397176106771
1723052738047830000; 3.3744303710937498; 0.0019662974039713543
1723052738047840000; 3.3694111328125; 0.0019681498209635417
1723052738047850000; 3.36449404296875; 0.0019700164794921875
1723052738047860000; 3.3594900390625004; 0.0019716593424479165
1723052738047870000; 3.35446357421875; 0.00197327880859375
1723052738047880000; 3.34945126953125; 0.0019748504638671875
1723052738047890000; 3.34443955078125; 0.001976554361979167
1723052738047900000; 3.339413671875; 0.0019783589680989586
1723052738047910000; 3.3344123046875; 0.001980152384440104
1723052738047920000; 3.32939638671875; 0.001981944783528646
1723052738047930000; 3.3244204101562502; 0.0019836781819661457
1723052738047940000; 3.3194201171874997; 0.0019855499267578125
1723052738047950000; 3.314394921875; 0.0019873006184895833
1723052738047960000; 3.3093943359374998; 0.001988913981119792
1723052738047970000; 3.30439287109375; 0.0019906382242838544
1723052738047980000; 3.29940068359375; 0.001992279052734375
1723052738047990000; 3.2944013671875; 0.0019940897623697915
1723052738048000000; 3.28939267578125; 0.001995749918619792
1723052738048010000; 3.284480078125; 0.001997184244791667
1723052738048020000; 3.2794596679687498; 0.001998789469401042
1723052738048030000; 3.274436328125; 0.0020001617431640627
1723052738048040000; 3.2694189453125; 0.0020015625
1723052738048050000; 3.26440390625; 0.002002995808919271
1723052738048060000; 3.259355078125; 0.0020046162923177085
1723052738048070000; 3.2543417968750004; 0.002006153361002604
1723052738048080000; 3.24933916015625; 0.0020078033447265627
1723052738048090000; 3.2443671875; 0.002009398396809896
1723052738048100000; 3.2393861328125; 0.0020109263102213544
1723052738048110000; 3.23434755859375; 0.0020125528971354167
1723052738048120000; 3.2293537109375; 0.0020139617919921874
1723052738048130000; 3.22436484375; 0.0020154317220052085
1723052738048140000; 3.2193611328125002; 0.002016950480143229
1723052738048150000; 3.21435263671875; 0.0020184600830078126
1723052738048160000; 3.20933916015625; 0.0020198689778645833
1723052738048170000; 3.2044216796875005; 0.0020211853027343753
1723052738048180000; 3.19942666015625; 0.002022398885091146
1723052738048190000; 3.1944171875; 0.002023741658528646
1723052738048200000; 3.1893787109375; 0.0020248799641927086
1723052738048210000; 3.18436083984375; 0.0020262786865234373
1723052738048220000; 3.179348828125; 0.0020276987711588543
1723052738048230000; 3.1743427734375; 0.002029044596354167
1723052738048240000; 3.1693898437500003; 0.0020304779052734375
1723052738048250000; 3.1643673828125003; 0.002031907145182292
1723052738048260000; 3.1593435546875; 0.002033311971028646
1723052738048270000; 3.1543447265625004; 0.0020346588134765625
1723052738048280000; 3.14935498046875; 0.002035962931315104
1723052738048290000; 3.1443760742187497; 0.0020372344970703126
1723052738048300000; 3.1393430664062496; 0.002038652547200521
1723052738048310000; 3.1343166015625004; 0.002039928181966146
