Time [s]; Voltage [V]; Current [A]
1723053106022770000; 4.71451474609375; 0.0
1723053106022780000; 4.71587314453125; 0.0
1723053106022790000; 4.7171298828125; 0.0
1723053106022800000; 4.7182919921875; 0.0
1723053106022810000; 4.71936611328125; 0.0
1723053106022820000; 4.7203703125; 0.0
1723053106022830000; 4.72129208984375; 0.0
1723053106022840000; 4.722153125; 0.0
1723053106022850000; 4.72295908203125; 0.0
1723053106022860000; 4.7237056640625; 0.0
1723053106022870000; 4.724395410156251; 0.0
1723053106022880000; 4.72504287109375; 0.0
1723053106022890000; 4.72563203125; 0.0
1723053106022900000; 4.72617734375; 0.0
1723053106022910000; 4.7266857421875; 0.0
1723053106022920000; 4.7271619140625; 0.0
1723053106022930000; 4.72759462890625; 0.0
1723053106022940000; 4.7279981445312504; 0.0
1723053106022950000; 4.728376171875; 0.0
1723053106022960000; 4.72873076171875; 0.0
1723053106022970000; 4.72905830078125; 0.0
1723053106022980000; 4.72933525390625; 0.0
1723053106022990000; 4.72945830078125; 0.0
1723053106023000000; 4.7288748046875; 0.0
1723053106023010000; 4.7275752929687505; 0.0
1723053106023020000; 4.72552275390625; 0.0
1723053106023030000; 4.7218115234375; 9.224446614583334e-06
1723053106023040000; 4.70725439453125; 0.0001021443684895834
1723053106023050000; 4.69724736328125; 0.0002605641682942708
1723053106023060000; 4.69059296875; 0.0003342569986979167
1723053106023070000; 4.6850733398437505; 0.0004205271402994792
1723053106023080000; 4.6799186523437495; 0.0005179453531901041
1723053106023090000; 4.67491318359375; 0.0005222676595052083
1723053106023100000; 4.6698916015625; 0.0005328440348307292
1723053106023110000; 4.66489287109375; 0.0005440511067708333
1723053106023120000; 4.65985224609375; 0.0005586741129557292
1723053106023130000; 4.65481416015625; 0.0005724375406901042
1723053106023140000; 4.6498091796875; 0.0005870666503906251
1723053106023150000; 4.64480654296875; 0.0006030039469401042
1723053106023160000; 4.63982138671875; 0.0006174977620442708
1723053106023170000; 4.63482275390625; 0.0006332824707031251
1723053106023180000; 4.62981318359375; 0.0006483428955078125
1723053106023190000; 4.6248234375; 0.0006633900960286458
1723053106023200000; 4.6198041015625; 0.0006788340250651043
1723053106023210000; 4.61484052734375; 0.0006923726399739584
1723053106023220000; 4.609855078125; 0.0007082183837890625
1723053106023230000; 4.6048314453125; 0.0007235107421875001
1723053106023240000; 4.5998505859375; 0.0007376841227213542
1723053106023250000; 4.5948361328125005; 0.0007527496337890625
1723053106023260000; 4.5898521484375; 0.0007666859944661458
1723053106023270000; 4.5848166015625; 0.0007819193522135417
1723053106023280000; 4.579791113281249; 0.0007960550944010416
1723053106023290000; 4.5748220703125; 0.0008091959635416668
1723053106023300000; 4.56977529296875; 0.0008250762939453125
1723053106023310000; 4.56478466796875; 0.0008383494059244792
1723053106023320000; 4.55977900390625; 0.0008524200439453126
1723053106023330000; 4.5547716796875; 0.0008662099202473959
1723053106023340000; 4.54978828125; 0.0008792602539062501
1723053106023350000; 4.544773339843751; 0.000892901611328125
1723053106023360000; 4.53978974609375; 0.0009054341634114584
1723053106023370000; 4.53480947265625; 0.0009182118733723959
1723053106023380000; 4.52979912109375; 0.0009322591145833333
1723053106023390000; 4.52479560546875; 0.0009449361165364584
1723053106023400000; 4.51980302734375; 0.0009578206380208335
1723053106023410000; 4.51482060546875; 0.0009701466878255209
1723053106023420000; 4.50980791015625; 0.000983073933919271
1723053106023430000; 4.504778222656251; 0.0009956390380859376
1723053106023440000; 4.49975595703125; 0.0010078084309895834
1723053106023450000; 4.49474697265625; 0.0010203460693359375
1723053106023460000; 4.489756054687501; 0.001032518513997396
1723053106023470000; 4.48476142578125; 0.001045025634765625
1723053106023480000; 4.4797623046875; 0.0010569600423177084
1723053106023490000; 4.4747705078125; 0.0010685282389322917
1723053106023500000; 4.46976083984375; 0.0010803426106770835
1723053106023510000; 4.46478544921875; 0.0010915283203125
1723053106023520000; 4.45978447265625; 0.001102946980794271
1723053106023530000; 4.4547990234374995; 0.0011140299479166667
1723053106023540000; 4.449815332031251; 0.0011257181803385418
1723053106023550000; 4.444785449218751; 0.0011372334798177084
1723053106023560000; 4.4398085937500005; 0.0011481363932291668
1723053106023570000; 4.4347986328125; 0.0011593343098958333
1723053106023580000; 4.42976787109375; 0.0011702412923177085
1723053106023590000; 4.42475556640625; 0.0011811442057291666
1723053106023600000; 4.4197315429687505; 0.0011920572916666668
1723053106023610000; 4.41474619140625; 0.001202716064453125
1723053106023620000; 4.40974345703125; 0.001213640340169271
1723053106023630000; 4.4047369140625; 0.0012239827473958334
1723053106023640000; 4.39975224609375; 0.001234380086263021
1723053106023650000; 4.39473681640625; 0.001244731648763021
1723053106023660000; 4.38974560546875; 0.0012546610514322918
1723053106023670000; 4.3847365234375; 0.0012648284912109376
1723053106023680000; 4.379786132812501; 0.0012738972981770835
1723053106023690000; 4.3747833984375; 0.001284503173828125
1723053106023700000; 4.36974873046875; 0.0012946645100911458
1723053106023710000; 4.364769921875; 0.0013040903727213544
1723053106023720000; 4.3597480468750005; 0.001313988240559896
1723053106023730000; 4.3547388671875; 0.0013234527587890628
1723053106023740000; 4.34972724609375; 0.0013330464680989585
1723053106023750000; 4.344691015625; 0.0013428721110026042
1723053106023760000; 4.33969833984375; 0.0013519938151041668
1723053106023770000; 4.33469052734375; 0.0013616607666015626
1723053106023780000; 4.32967783203125; 0.0013707244873046875
1723053106023790000; 4.324708984375; 0.0013795857747395835
1723053106023800000; 4.31968427734375; 0.0013889048258463542
1723053106023810000; 4.31470390625; 0.0013975443522135417
1723053106023820000; 4.3097036132812505; 0.0014064788818359375
1723053106023830000; 4.30470810546875; 0.0014149515787760416
1723053106023840000; 4.299761132812501; 0.0014232187906901043
1723053106023850000; 4.29474453125; 0.0014324493408203126
1723053106023860000; 4.2897453125; 0.0014408589680989584
1723053106023870000; 4.2847287109375; 0.0014495666503906253
1723053106023880000; 4.27971357421875; 0.0014579498291015624
1723053106023890000; 4.27472724609375; 0.0014663035074869793
1723053106023900000; 4.269678125; 0.0014749735514322918
1723053106023910000; 4.26464658203125; 0.0014832641601562502
1723053106023920000; 4.25965498046875; 0.0014911631266276042
1723053106023930000; 4.2546701171875005; 0.001499132283528646
1723053106023940000; 4.24970234375; 0.0015070220947265625
1723053106023950000; 4.244683984375; 0.0015151936848958334
1723053106023960000; 4.23965390625; 0.0015231028238932292
1723053106023970000; 4.2346479492187505; 0.0015307332356770834
1723053106023980000; 4.2296566406250005; 0.001538199869791667
1723053106023990000; 4.224697265625; 0.0015454243977864584
1723053106024000000; 4.21971923828125; 0.0015530192057291667
1723053106024010000; 4.2147056640625; 0.0015607818603515624
1723053106024020000; 4.2096939453125; 0.0015682017008463542
1723053106024030000; 4.20468662109375; 0.0015757303873697916
1723053106024040000; 4.19970205078125; 0.001583048502604167
1723053106024050000; 4.1946783203125; 0.0015906087239583333
1723053106024060000; 4.18962509765625; 0.0015980672200520834
1723053106024070000; 4.184649609375; 0.0016049540201822918
1723053106024080000; 4.1796330078125; 0.001612224324544271
1723053106024090000; 4.1746486328125005; 0.0016189270019531252
1723053106024100000; 4.16964716796875; 0.0016258636474609375
1723053106024110000; 4.16462470703125; 0.0016328786214192708
1723053106024120000; 4.1596510742187505; 0.001639592488606771
1723053106024130000; 4.15464638671875; 0.0016462453206380209
1723053106024140000; 4.14967529296875; 0.0016528279622395833
1723053106024150000; 4.14471201171875; 0.0016591186523437502
1723053106024160000; 4.1396829101562505; 0.0016660217285156252
1723053106024170000; 4.1346712890625; 0.001672581990559896
1723053106024180000; 4.12967744140625; 0.0016790466308593752
1723053106024190000; 4.12469287109375; 0.001685595703125
1723053106024200000; 4.1196685546875; 0.001692204793294271
1723053106024210000; 4.11462841796875; 0.0016988098144531253
1723053106024220000; 4.10960927734375; 0.0017050740559895836
1723053106024230000; 4.10463486328125; 0.0017111368815104166
1723053106024240000; 4.09966416015625; 0.0017172190348307293
1723053106024250000; 4.09465625; 0.0017233022054036458
1723053106024260000; 4.08962734375; 0.0017292887369791668
1723053106024270000; 4.084630859375; 0.0017352569580078125
1723053106024280000; 4.07963935546875; 0.001740943400065104
1723053106024290000; 4.0746633789062505; 0.0017467061360677085
1723053106024300000; 4.06966669921875; 0.0017524932861328127
1723053106024310000; 4.06468876953125; 0.0017580485026041667
1723053106024320000; 4.05967578125; 0.0017639404296875
1723053106024330000; 4.0546779296875; 0.0017698689778645835
1723053106024340000; 4.0496986328125; 0.0017756622314453127
1723053106024350000; 4.04467158203125; 0.0017815582275390626
1723053106024360000; 4.039627929687501; 0.0017873657226562501
1723053106024370000; 4.034615625; 0.0017928873697916666
1723053106024380000; 4.0296064453125; 0.0017981974283854168
1723053106024390000; 4.0246307617187504; 0.0018033945719401043
1723053106024400000; 4.0196283203125; 0.0018087677001953125
1723053106024410000; 4.0146115234375; 0.0018139841715494793
1723053106024420000; 4.00960390625; 0.001819298299153646
1723053106024430000; 4.00462080078125; 0.0018243479410807292
1723053106024440000; 3.9996211914062503; 0.001829547119140625
1723053106024450000; 3.9946090820312503; 0.0018346140543619794
1723053106024460000; 3.9896712890625; 0.0018392903645833333
1723053106024470000; 3.9846626953125; 0.0018444315592447919
1723053106024480000; 3.9796416015625; 0.0018495829264322918
1723053106024490000; 3.97466923828125; 0.0018547261555989583
1723053106024500000; 3.96964775390625; 0.0018600453694661459
1723053106024510000; 3.96461484375; 0.0018650807698567709
1723053106024520000; 3.95960498046875; 0.0018700622558593752
1723053106024530000; 3.9545866210937497; 0.0018747528076171877
1723053106024540000; 3.9496323242187503; 0.001879253133138021
1723053106024550000; 3.9446072265625003; 0.0018840372721354167
1723053106024560000; 3.939583203125; 0.001888694254557292
1723053106024570000; 3.9345962890625; 0.0018931650797526043
1723053106024580000; 3.92960634765625; 0.0018975667317708334
1723053106024590000; 3.92462841796875; 0.0019020039876302083
1723053106024600000; 3.9195984375; 0.0019066589355468753
1723053106024610000; 3.91458857421875; 0.001910991414388021
1723053106024620000; 3.9096416015625; 0.0019152058919270833
1723053106024630000; 3.90465830078125; 0.0019197387695312502
1723053106024640000; 3.8996633789062503; 0.0019243448893229167
1723053106024650000; 3.8946314453125; 0.0019290629069010417
1723053106024660000; 3.8896076171875; 0.0019335144042968752
1723053106024670000; 3.88459990234375; 0.0019378906250000002
1723053106024680000; 3.87958544921875; 0.001942107137044271
1723053106024690000; 3.8746001953125; 0.0019463063557942709
1723053106024700000; 3.86959765625; 0.001950281778971354
1723053106024710000; 3.8645818359375; 0.0019541758219401044
1723053106024720000; 3.859590625; 0.0019581532796223962
1723053106024730000; 3.8546034179687503; 0.0019620198567708337
1723053106024740000; 3.84962236328125; 0.0019659698486328126
1723053106024750000; 3.8445901367187503; 0.001969999186197917
1723053106024760000; 3.8395682617187505; 0.0019739227294921875
1723053106024770000; 3.8346084960937503; 0.001977686564127604
1723053106024780000; 3.82967548828125; 0.0019815561930338543
1723053106024790000; 3.82469951171875; 0.001985588582356771
1723053106024800000; 3.8196595703125; 0.0019897176106770833
1723053106024810000; 3.8146164062500003; 0.0019937957763671876
1723053106024820000; 3.8096216796875; 0.0019977081298828124
1723053106024830000; 3.8046091796874997; 0.0020013498942057294
1723053106024840000; 3.79960703125; 0.002005088297526042
1723053106024850000; 3.7946158203125004; 0.002008579508463542
1723053106024860000; 3.7895916015625; 0.002012210083007813
1723053106024870000; 3.7845833984375004; 0.002015521240234375
1723053106024880000; 3.779603125; 0.0020189168294270834
1723053106024890000; 3.77463076171875; 0.0020223225911458332
1723053106024900000; 3.76961796875; 0.0020259053548177084
1723053106024910000; 3.76457978515625; 0.002029302978515625
1723053106024920000; 3.75956904296875; 0.0020327402750651043
1723053106024930000; 3.7546466796875; 0.002036088053385417
1723053106024940000; 3.7496352539062503; 0.0020397959391276043
1723053106024950000; 3.74461787109375; 0.002043407185872396
1723053106024960000; 3.7396036132812505; 0.002046961466471354
1723053106024970000; 3.7345978515625; 0.002050450642903646
1723053106024980000; 3.72960283203125; 0.0020538370768229167
1723053106024990000; 3.7245623046875; 0.002057151285807292
1723053106025000000; 3.7195537109375; 0.0020602386474609376
1723053106025010000; 3.7145640625; 0.0020632283528645833
1723053106025020000; 3.7095728515625; 0.0020662851969401046
1723053106025030000; 3.7045734375; 0.002069263712565104
1723053106025040000; 3.6995609375; 0.002072240193684896
1723053106025050000; 3.69456328125; 0.002075238037109375
1723053106025060000; 3.689565625; 0.0020783477783203126
1723053106025070000; 3.6845638671875003; 0.002081418863932292
1723053106025080000; 3.67956494140625; 0.0020845245361328125
1723053106025090000; 3.6746150390625; 0.0020875447591145835
1723053106025100000; 3.66962119140625; 0.0020907969156901043
1723053106025110000; 3.6645999999999996; 0.0020939544677734375
1723053106025120000; 3.65959169921875; 0.002096983846028646
1723053106025130000; 3.65457744140625; 0.002100043741861979
1723053106025140000; 3.64956484375; 0.0021028706868489585
1723053106025150000; 3.64453701171875; 0.0021057108561197916
1723053106025160000; 3.6395333984375005; 0.0021084391276041665
1723053106025170000; 3.6345701171875; 0.0021110788981119795
1723053106025180000; 3.6295787109375; 0.0021136749267578127
1723053106025190000; 3.6245695312499997; 0.0021162434895833334
1723053106025200000; 3.6195560546874996; 0.002118817138671875
1723053106025210000; 3.61455244140625; 0.0021214701334635417
1723053106025220000; 3.609560546875; 0.002124207560221354
1723053106025230000; 3.60454423828125; 0.002126904296875
1723053106025240000; 3.5996283203125; 0.0021296529134114586
1723053106025250000; 3.5946041992187503; 0.0021325398763020836
1723053106025260000; 3.58957275390625; 0.0021353424072265625
1723053106025270000; 3.58459501953125; 0.0021379608154296877
1723053106025280000; 3.5795724609375004; 0.002140654500325521
1723053106025290000; 3.57456875; 0.002143272908528646
1723053106025300000; 3.5695580078124998; 0.0021458628336588543
1723053106025310000; 3.56451923828125; 0.0021482381184895834
1723053106025320000; 3.55956474609375; 0.0021505157470703127
1723053106025330000; 3.55455126953125; 0.002152801513671875
1723053106025340000; 3.54953857421875; 0.002155029296875
1723053106025350000; 3.5445625; 0.002157427978515625
1723053106025360000; 3.539540234375; 0.0021596700032552084
1723053106025370000; 3.53455556640625; 0.002161931355794271
1723053106025380000; 3.5295388671875; 0.0021646148681640624
1723053106025390000; 3.52453095703125; 0.002167228190104167
1723053106025400000; 3.51960146484375; 0.002169595336914063
1723053106025410000; 3.5145994140625; 0.002171982828776042
1723053106025420000; 3.50958671875; 0.0021743469238281253
1723053106025430000; 3.50456689453125; 0.002176761881510417
1723053106025440000; 3.4995525390625; 0.0021790405273437504
1723053106025450000; 3.49457236328125; 0.002181255086263021
1723053106025460000; 3.4895491210937504; 0.0021835215250651046
1723053106025470000; 3.4845462890624996; 0.0021855611165364584
1723053106025480000; 3.4795626953125005; 0.0021874704996744793
1723053106025490000; 3.47456962890625; 0.0021895731608072917
1723053106025500000; 3.46956064453125; 0.002191504923502604
1723053106025510000; 3.46455146484375; 0.0021934824625651043
1723053106025520000; 3.4595744140624998; 0.0021955474853515627
1723053106025530000; 3.45456240234375; 0.0021978413899739584
1723053106025540000; 3.4495400390625; 0.002200187174479167
1723053106025550000; 3.4445646484375; 0.002202399698893229
1723053106025560000; 3.439623828125; 0.002204360961914063
1723053106025570000; 3.4346334960937503; 0.0022064910888671876
1723053106025580000; 3.4296125976562504; 0.0022085113525390624
1723053106025590000; 3.42455634765625; 0.002210599772135417
1723053106025600000; 3.41953505859375; 0.0022126678466796875
1723053106025610000; 3.4145144531250002; 0.002214676920572917
1723053106025620000; 3.40949853515625; 0.0022165242513020834
1723053106025630000; 3.40451171875; 0.0022183247884114583
1723053106025640000; 3.3994723632812502; 0.002220013427734375
1723053106025650000; 3.3944595703125002; 0.002221710205078125
1723053106025660000; 3.3894638671875; 0.0022234700520833333
1723053106025670000; 3.38447734375; 0.002225358072916667
1723053106025680000; 3.37948701171875; 0.002227259318033854
1723053106025690000; 3.3744692382812502; 0.002229296875
1723053106025700000; 3.3694497070312504; 0.0022313883463541666
1723053106025710000; 3.3645265625; 0.0022331736246744794
1723053106025720000; 3.35952109375; 0.002234963989257813
1723053106025730000; 3.3545008789062503; 0.0022367858886718755
1723053106025740000; 3.3494939453125; 0.0022385386149088543
1723053106025750000; 3.34447939453125; 0.0022404388427734374
1723053106025760000; 3.3394550781250003; 0.0022420664469401043
1723053106025770000; 3.33445751953125; 0.002243804931640625
1723053106025780000; 3.32943994140625; 0.002245318603515625
1723053106025790000; 3.3244583984375; 0.0022469126383463543
1723053106025800000; 3.3194554687499997; 0.002248546346028646
1723053106025810000; 3.31443837890625; 0.0022500447591145833
1723053106025820000; 3.3094490234375002; 0.002251494344075521
1723053106025830000; 3.3044290039062503; 0.0022533040364583336
1723053106025840000; 3.2994441406250004; 0.002255078125
1723053106025850000; 3.29444697265625; 0.0022569478352864585
1723053106025860000; 3.2894255859375; 0.002258587646484375
1723053106025870000; 3.2845179687500003; 0.002260081990559896
1723053106025880000; 3.2794938476562496; 0.0022617095947265625
1723053106025890000; 3.2744717773437504; 0.0022631805419921877
1723053106025900000; 3.26945576171875; 0.0022649088541666666
1723053106025910000; 3.2644333984375; 0.00226649169921875
1723053106025920000; 3.25939677734375; 0.0022679972330729168
1723053106025930000; 3.25438115234375; 0.0022694061279296875
1723053106025940000; 3.24938359375; 0.002270830281575521
1723053106025950000; 3.2444083984375; 0.002272170003255208
1723053106025960000; 3.2394236328124997; 0.0022735626220703126
1723053106025970000; 3.234392578125; 0.0022750183105468753
1723053106025980000; 3.22939248046875; 0.0022764241536458335
1723053106025990000; 3.2244119140625003; 0.002278061930338542
1723053106026000000; 3.21940390625; 0.002279564412434896
1723053106026010000; 3.21439150390625; 0.0022810587565104167
1723053106026020000; 3.209382421875; 0.0022824432373046875
1723053106026030000; 3.204459765625; 0.0022837799072265626
1723053106026040000; 3.199454296875; 0.002285205078125
1723053106026050000; 3.1944516601562505; 0.0022865295410156253
1723053106026060000; 3.1894174804687503; 0.0022879720052083334
1723053106026070000; 3.1844001953125; 0.0022893493652343753
1723053106026080000; 3.1793894531249998; 0.00229063720703125
1723053106026090000; 3.1743837890625004; 0.0022919626871744795
1723053106026100000; 3.1694291015625; 0.0022931172688802084
1723053106026110000; 3.1643997070312504; 0.0022943908691406252
1723053106026120000; 3.1593796875; 0.002295658365885417
1723053106026130000; 3.15438955078125; 0.002296904500325521
1723053106026140000; 3.149398046875; 0.002298295084635417
