Time [s]; Voltage [V]; Current [A]
1723053646029570000; 4.8200984375; 0.0
1723053646029580000; 4.82193837890625; 0.0
1723053646029590000; 4.8236411132812504; 0.0
1723053646029600000; 4.82507548828125; 0.0
1723053646029610000; 4.8257544921875; 0.0
1723053646029620000; 4.82574912109375; 0.0
1723053646029630000; 4.82507744140625; 0.0
1723053646029640000; 4.812703613281251; 0.0001001230875651042
1723053646029650000; 4.79882080078125; 0.0002114837646484375
1723053646029660000; 4.7909257812499995; 0.0003374847412109376
1723053646029670000; 4.785093359375; 0.0004811248779296874
1723053646029680000; 4.7799003906249995; 0.0005586374918619792
1723053646029690000; 4.7748408203125; 0.00068565470377604168
1723053646029700000; 4.7698455078125; 0.0007619079589843751
1723053646029710000; 4.7648552734375; 0.0008750172932942709
1723053646029720000; 4.7598299804687505; 0.0008905446370442709
1723053646029730000; 4.7548404296875; 0.0009058054606119792
1723053646029740000; 4.74986650390625; 0.0009222768147786459
1723053646029750000; 4.744862402343751; 0.0009416636149088542
1723053646029760000; 4.73985556640625; 0.0009602569580078126
1723053646029770000; 4.7348162109375; 0.0009803975423177084
1723053646029780000; 4.72979921875; 0.0009989095052083334
1723053646029790000; 4.7248224609375; 0.0010178914388020834
1723053646029800000; 4.7197990234375; 0.0010371683756510417
1723053646029810000; 4.71484765625; 0.0010538828531901042
1723053646029820000; 4.709829296875; 0.0010736358642578125
1723053646029830000; 4.704819921875; 0.001091545613606771
1723053646029840000; 4.69982333984375; 0.001109197998046875
1723053646029850000; 4.69482685546875; 0.0011277750651041668
1723053646029860000; 4.68986826171875; 0.0011445719401041669
1723053646029870000; 4.6848560546875; 0.001164928181966146
1723053646029880000; 4.67984853515625; 0.0011824350992838543
1723053646029890000; 4.674866113281251; 0.0011990570068359375
1723053646029900000; 4.669848828125001; 0.0012172271728515625
1723053646029910000; 4.66484951171875; 0.001234196980794271
1723053646029920000; 4.65979931640625; 0.0012529571533203127
1723053646029930000; 4.654769628906251; 0.001269469197591146
1723053646029940000; 4.649762890625; 0.001286394246419271
1723053646029950000; 4.6447549804687505; 0.001303716023763021
1723053646029960000; 4.6397715820312495; 0.0013190134684244793
1723053646029970000; 4.63477294921875; 0.0013355682373046877
1723053646029980000; 4.6297634765625; 0.0013511393229166668
1723053646029990000; 4.6247811523437505; 0.0013668426513671875
1723053646030000000; 4.6197580078125; 0.0013831390380859376
1723053646030010000; 4.6148041015625; 0.0013972320556640628
1723053646030020000; 4.60981826171875; 0.0014139780680338544
1723053646030030000; 4.60479638671875; 0.001430271402994792
1723053646030040000; 4.59981962890625; 0.0014451914469401043
1723053646030050000; 4.594808984375; 0.0014608215332031253
1723053646030060000; 4.5898265625; 0.0014752634684244792
1723053646030070000; 4.5847837890625; 0.0014912322998046875
1723053646030080000; 4.57974736328125; 0.0015060312906901045
1723053646030090000; 4.5747779296875; 0.0015199961344401043
1723053646030100000; 4.569733203125; 0.0015362202962239586
1723053646030110000; 4.564753808593751; 0.0015496317545572917
1723053646030120000; 4.55975205078125; 0.0015640747070312503
1723053646030130000; 4.554753515625; 0.001577904256184896
1723053646030140000; 4.54976484375; 0.0015914276123046875
1723053646030150000; 4.5447525390625; 0.0016058146158854168
1723053646030160000; 4.53976181640625; 0.0016189056396484374
1723053646030170000; 4.53478681640625; 0.0016321533203125002
1723053646030180000; 4.52976943359375; 0.001647063191731771
1723053646030190000; 4.52477451171875; 0.0016601633707682291
1723053646030200000; 4.519773046875; 0.0016737497965494794
1723053646030210000; 4.51479521484375; 0.001686705525716146
1723053646030220000; 4.50977646484375; 0.0017000325520833335
1723053646030230000; 4.50474169921875; 0.0017133076985677085
1723053646030240000; 4.4997183593750005; 0.0017261749267578124
1723053646030250000; 4.494722265625; 0.0017392303466796876
1723053646030260000; 4.4897335937500005; 0.0017518778483072916
1723053646030270000; 4.4847278320312505; 0.0017646575927734375
1723053646030280000; 4.479714746093751; 0.0017769185384114586
1723053646030290000; 4.4747390625; 0.0017886830647786459
1723053646030300000; 4.46973369140625; 0.0018007944742838545
1723053646030310000; 4.46475751953125; 0.0018123809814453125
1723053646030320000; 4.45976953125; 0.001824382527669271
1723053646030330000; 4.45478466796875; 0.0018361226399739585
1723053646030340000; 4.44979970703125; 0.0018485188802083335
1723053646030350000; 4.4447736328125; 0.0018605224609375
1723053646030360000; 4.43978515625; 0.001871800740559896
1723053646030370000; 4.4347716796875; 0.0018833780924479167
1723053646030380000; 4.42975; 0.0018947275797526041
1723053646030390000; 4.4247388671875; 0.0019060190836588543
1723053646030400000; 4.4197095703125004; 0.0019174204508463544
1723053646030410000; 4.41472744140625; 0.0019285135904947917
1723053646030420000; 4.40971494140625; 0.0019398529052734375
1723053646030430000; 4.40471767578125; 0.0019506083170572918
1723053646030440000; 4.39972900390625; 0.0019612325032552086
1723053646030450000; 4.3947136718749995; 0.0019718292236328124
1723053646030460000; 4.389722070312501; 0.0019820343017578125
1723053646030470000; 4.38471328125; 0.0019926361083984377
1723053646030480000; 4.3797623046875005; 0.002002226765950521
1723053646030490000; 4.37476591796875; 0.0020133748372395833
1723053646030500000; 4.36973984375; 0.0020240641276041667
1723053646030510000; 4.3647572265625; 0.0020339182535807293
1723053646030520000; 4.35974609375; 0.002044307454427083
1723053646030530000; 4.35472587890625; 0.0020539082845052086
1723053646030540000; 4.3497201171875; 0.002063744099934896
1723053646030550000; 4.3446740234375; 0.002074007161458334
1723053646030560000; 4.33968515625; 0.0020835103352864585
1723053646030570000; 4.3346724609375; 0.0020937642415364585
1723053646030580000; 4.329666992187501; 0.002103314208984375
1723053646030590000; 4.32468505859375; 0.002112644449869792
1723053646030600000; 4.3196725585937505; 0.0021223571777343755
1723053646030610000; 4.31468974609375; 0.0021310251871744794
1723053646030620000; 4.3096767578125; 0.0021403157552083336
1723053646030630000; 4.30467998046875; 0.0021492523193359374
1723053646030640000; 4.299725097656251; 0.002157860310872396
1723053646030650000; 4.29470869140625; 0.0021675079345703126
1723053646030660000; 4.28972177734375; 0.0021762166341145837
1723053646030670000; 4.28470673828125; 0.0021852315266927087
1723053646030680000; 4.279689453125; 0.002193895467122396
1723053646030690000; 4.27471328125; 0.0022023651123046876
1723053646030700000; 4.2696746093749995; 0.002211327107747396
1723053646030710000; 4.26463896484375; 0.0022198282877604167
1723053646030720000; 4.25963447265625; 0.002228299967447917
1723053646030730000; 4.254639062500001; 0.0022368174235026044
1723053646030740000; 4.2496759765625; 0.0022451782226562502
1723053646030750000; 4.24464462890625; 0.0022535990397135417
1723053646030760000; 4.239628124999999; 0.0022617401123046876
1723053646030770000; 4.23462841796875; 0.0022698140462239585
1723053646030780000; 4.229626171875; 0.0022774770100911458
1723053646030790000; 4.22466689453125; 0.002285137939453125
1723053646030800000; 4.2196896484375; 0.002293190511067708
1723053646030810000; 4.214668847656251; 0.0023014007568359376
1723053646030820000; 4.2096638671875; 0.0023092132568359376
1723053646030830000; 4.20466201171875; 0.0023167510986328126
1723053646030840000; 4.19967451171875; 0.002324223836263021
1723053646030850000; 4.19465400390625; 0.002331820678710938
1723053646030860000; 4.18959560546875; 0.002339316813151042
1723053646030870000; 4.1846205078125; 0.002346574910481771
1723053646030880000; 4.17961416015625; 0.002354221598307292
1723053646030890000; 4.174626953125; 0.0023616109212239588
1723053646030900000; 4.16962431640625; 0.002369108072916667
1723053646030910000; 4.16460224609375; 0.002376279703776042
1723053646030920000; 4.15962529296875; 0.002383275349934896
1723053646030930000; 4.154620703125; 0.00239014892578125
1723053646030940000; 4.1496462890625; 0.0023969146728515626
1723053646030950000; 4.14469560546875; 0.0024036580403645836
1723053646030960000; 4.139669140625; 0.0024108907063802084
1723053646030970000; 4.1346578125; 0.002417943318684896
1723053646030980000; 4.12967021484375; 0.0024244527180989585
1723053646030990000; 4.12468125; 0.0024310323079427083
1723053646031000000; 4.11966640625; 0.0024375915527343754
1723053646031010000; 4.11462568359375; 0.0024441894531250005
1723053646031020000; 4.1096043945312495; 0.0024507039388020836
1723053646031030000; 4.104626855468751; 0.0024571787516276043
1723053646031040000; 4.0996466796875; 0.0024637664794921878
1723053646031050000; 4.094637792968751; 0.0024703704833984375
1723053646031060000; 4.08962333984375; 0.002476836140950521
1723053646031070000; 4.08461806640625; 0.002483104451497396
1723053646031080000; 4.0796216796875004; 0.002489075724283854
1723053646031090000; 4.07465458984375; 0.0024951263427734375
1723053646031100000; 4.06965703125; 0.0025012064615885423
1723053646031110000; 4.064683593750001; 0.0025070404052734375
1723053646031120000; 4.05966572265625; 0.0025132273356119794
1723053646031130000; 4.054669335937501; 0.002519107055664063
1723053646031140000; 4.04969345703125; 0.0025250264485677087
1723053646031150000; 4.044661328125; 0.002530804443359375
1723053646031160000; 4.039627929687501; 0.002536508178710938
1723053646031170000; 4.03460068359375; 0.0025422271728515627
1723053646031180000; 4.02959345703125; 0.0025478251139322916
1723053646031190000; 4.024614453125; 0.0025535400390625
1723053646031200000; 4.019609765625001; 0.002559434000651042
1723053646031210000; 4.01458173828125; 0.0025651570638020836
1723053646031220000; 4.009575; 0.0025706186930338545
1723053646031230000; 4.004603125; 0.0025761250813802084
1723053646031240000; 3.99960869140625; 0.002581383260091146
1723053646031250000; 3.9945966796875; 0.0025867950439453125
1723053646031260000; 3.9896453125; 0.002591694132486979
1723053646031270000; 3.98464375; 0.0025972452799479166
1723053646031280000; 3.9796201171875003; 0.0026025390625
1723053646031290000; 3.9746516601562503; 0.0026075134277343754
1723053646031300000; 3.9696427734374997; 0.002612706502278646
1723053646031310000; 3.9646099609375; 0.002617649332682292
1723053646031320000; 3.959584765625; 0.002622587076822917
1723053646031330000; 3.9545701171874996; 0.0026274678548177085
1723053646031340000; 3.9496194335937505; 0.002632366943359375
1723053646031350000; 3.9445829101562504; 0.00263756103515625
1723053646031360000; 3.9395552734375; 0.0026426981608072917
1723053646031370000; 3.9345880859375; 0.0026476735432942712
1723053646031380000; 3.92958310546875; 0.002652622477213542
1723053646031390000; 3.9246189453125; 0.0026572224934895833
1723053646031400000; 3.919576171875; 0.002661995442708334
1723053646031410000; 3.9145663085937503; 0.002666678873697917
1723053646031420000; 3.9096306640625; 0.0026710113525390627
1723053646031430000; 3.904647265625; 0.002675664265950521
1723053646031440000; 3.8996438476562503; 0.0026802642822265628
1723053646031450000; 3.8946143554687502; 0.0026848510742187503
1723053646031460000; 3.8895871093750003; 0.0026892303466796875
1723053646031470000; 3.88457880859375; 0.0026936391194661456
1723053646031480000; 3.87957275390625; 0.0026978607177734377
1723053646031490000; 3.87457763671875; 0.002702120971679688
1723053646031500000; 3.8695708984375; 0.0027065653483072916
1723053646031510000; 3.8645565429687503; 0.002711134847005208
1723053646031520000; 3.8595609375000004; 0.0027155059814453126
1723053646031530000; 3.8545673828125; 0.002719924926757813
1723053646031540000; 3.8495950195312503; 0.002724095662434896
1723053646031550000; 3.844580078125; 0.0027282958984375
1723053646031560000; 3.8395564453125; 0.0027323282877604166
1723053646031570000; 3.83459716796875; 0.0027362030029296873
1723053646031580000; 3.8296602539062503; 0.0027400767008463546
1723053646031590000; 3.8246838867187503; 0.0027441721598307294
1723053646031600000; 3.8196423828125; 0.0027483500162760414
1723053646031610000; 3.8145901367187505; 0.0027523834228515625
1723053646031620000; 3.80959462890625; 0.0027561075846354167
1723053646031630000; 3.80459287109375; 0.0027598225911458336
1723053646031640000; 3.7995887695312502; 0.0027635599772135415
1723053646031650000; 3.794595703125; 0.0027673411051432296
1723053646031660000; 3.7895559570312503; 0.0027712117513020835
1723053646031670000; 3.7845389648437497; 0.002775115966796875
1723053646031680000; 3.7795638671875; 0.0027789337158203127
1723053646031690000; 3.7745962890625004; 0.0027828257242838543
1723053646031700000; 3.7695913085937502; 0.0027865488688151043
1723053646031710000; 3.7645590820312504; 0.002790306599934896
1723053646031720000; 3.7595515625; 0.0027938710530598957
1723053646031730000; 3.7546328125; 0.0027972351074218756
1723053646031740000; 3.7496167968750003; 0.0028009043375651042
1723053646031750000; 3.7446076171875; 0.00280435791015625
1723053646031760000; 3.7395869140625; 0.002807877604166667
1723053646031770000; 3.73458359375; 0.002811257934570313
1723053646031780000; 3.729591015625; 0.0028146209716796875
1723053646031790000; 3.72454892578125; 0.002817838541666667
1723053646031800000; 3.7195384765624997; 0.002821050008138021
1723053646031810000; 3.7145509765625; 0.0028243550618489584
1723053646031820000; 3.7095568359374997; 0.0028278015136718754
1723053646031830000; 3.7045537109374997; 0.002831177775065105
1723053646031840000; 3.6995473632812503; 0.002834686279296875
1723053646031850000; 3.6945421874999997; 0.0028381774902343756
1723053646031860000; 3.6895461914062504; 0.0028414947509765626
1723053646031870000; 3.6845621093750003; 0.002844566853841146
1723053646031880000; 3.6795676757812497; 0.0028475718180338543
1723053646031890000; 3.6746099609375; 0.0028505839029947916
1723053646031900000; 3.6696130859375002; 0.002853774007161459
1723053646031910000; 3.66459658203125; 0.0028569539388020836
1723053646031920000; 3.65958251953125; 0.0028600413004557295
1723053646031930000; 3.6545681640625003; 0.002863070678710938
1723053646031940000; 3.6495534179687503; 0.002865903727213542
1723053646031950000; 3.6445357421875; 0.0028686116536458333
1723053646031960000; 3.63952109375; 0.0028714813232421877
1723053646031970000; 3.634555078125; 0.0028744405110677084
1723053646031980000; 3.62955546875; 0.0028773203531901044
1723053646031990000; 3.624553125; 0.002880388387044271
1723053646032000000; 3.61954619140625; 0.002883628336588542
1723053646032010000; 3.6145470703124998; 0.0028866160074869796
1723053646032020000; 3.6095466796875; 0.002889404296875
1723053646032030000; 3.6045381835937502; 0.002892186482747396
1723053646032040000; 3.59961796875; 0.0028949005126953126
1723053646032050000; 3.5945967773437504; 0.002897584025065104
1723053646032060000; 3.5895599609375; 0.0029003387451171873
1723053646032070000; 3.5845708984374998; 0.00290303955078125
1723053646032080000; 3.5795572265625; 0.0029056589762369795
1723053646032090000; 3.574551953125; 0.0029082377115885417
1723053646032100000; 3.569535546875; 0.0029107564290364583
1723053646032110000; 3.5645021484375; 0.0029131357828776046
1723053646032120000; 3.55953779296875; 0.002915520222981771
1723053646032130000; 3.5545416015624998; 0.002918230183919271
1723053646032140000; 3.5495220703125; 0.0029208872477213543
1723053646032150000; 3.544537109375; 0.002923558553059896
1723053646032160000; 3.539515234375; 0.002926283772786459
1723053646032170000; 3.5345354492187497; 0.002928893025716146
1723053646032180000; 3.5295234375; 0.0029314371744791666
1723053646032190000; 3.52451787109375; 0.002933833821614584
1723053646032200000; 3.51958984375; 0.00293616943359375
1723053646032210000; 3.5145824218749997; 0.002938596598307292
1723053646032220000; 3.5095706054687503; 0.002941053263346354
1723053646032230000; 3.50454853515625; 0.0029434254964192707
1723053646032240000; 3.49954287109375; 0.0029457875569661464
1723053646032250000; 3.49455576171875; 0.0029479563395182293
1723053646032260000; 3.48953134765625; 0.0029500467936197914
1723053646032270000; 3.4845267578124997; 0.0029519948323567715
1723053646032280000; 3.47954365234375; 0.002954196166992188
1723053646032290000; 3.4745554687499998; 0.0029564656575520837
1723053646032300000; 3.46955126953125; 0.002958822631835938
1723053646032310000; 3.4645407226562503; 0.0029612447102864586
1723053646032320000; 3.4595599609375; 0.002963705444335938
1723053646032330000; 3.454552734375; 0.0029659505208333337
1723053646032340000; 3.449541015625; 0.002968030802408854
1723053646032350000; 3.4445589843750004; 0.0029701934814453127
1723053646032360000; 3.4396120117187503; 0.002972197469075521
1723053646032370000; 3.43461513671875; 0.0029743011474609375
1723053646032380000; 3.4295875000000002; 0.002976394653320313
1723053646032390000; 3.42454599609375; 0.002978514607747396
1723053646032400000; 3.4195198242187503; 0.0029806182861328127
1723053646032410000; 3.41449775390625; 0.0029825846354166667
1723053646032420000; 3.40947568359375; 0.002984523518880208
1723053646032430000; 3.4044939453125; 0.0029862986246744793
1723053646032440000; 3.3994494140625; 0.0029882781982421875
1723053646032450000; 3.3944405273437503; 0.0029902862548828128
1723053646032460000; 3.38942734375; 0.0029923238118489586
1723053646032470000; 3.3844431640624997; 0.0029944875081380213
1723053646032480000; 3.3794673828125004; 0.0029965830485026044
1723053646032490000; 3.3744494140625; 0.0029985361735026046
1723053646032500000; 3.36944453125; 0.0030004028320312504
1723053646032510000; 3.36452958984375; 0.0030022918701171873
1723053646032520000; 3.3595219726562497; 0.003004156494140625
1723053646032530000; 3.354495703125; 0.003006053670247396
1723053646032540000; 3.3494823242187497; 0.0030079142252604166
1723053646032550000; 3.344460546875; 0.0030098154703776044
1723053646032560000; 3.339442578125; 0.003011498006184896
1723053646032570000; 3.3344373046875; 0.003013260904947917
1723053646032580000; 3.3294134765625; 0.0030147837320963545
1723053646032590000; 3.3244321289062504; 0.00301640625
1723053646032600000; 3.3194365234375; 0.003018028767903646
1723053646032610000; 3.31441435546875; 0.003019765218098959
1723053646032620000; 3.30942021484375; 0.0030217336018880207
1723053646032630000; 3.3044091796875; 0.0030235341389973957
1723053646032640000; 3.2994218749999997; 0.0030254079182942713
1723053646032650000; 3.294431640625; 0.003027225748697917
1723053646032660000; 3.289410546875; 0.0030287618001302087
1723053646032670000; 3.2844981445312498; 0.0030303517659505206
1723053646032680000; 3.2794779296875; 0.0030320770263671877
1723053646032690000; 3.2744529296875; 0.0030336741129557295
1723053646032700000; 3.26942568359375; 0.003035430908203125
1723053646032710000; 3.26441318359375; 0.0030371256510416667
1723053646032720000; 3.2593806640625003; 0.0030386433919270834
1723053646032730000; 3.25436357421875; 0.0030400380452473962
1723053646032740000; 3.2493685546875004; 0.003041404215494792
1723053646032750000; 3.24439375; 0.003042723592122396
1723053646032760000; 3.239404296875; 0.0030441975911458335
1723053646032770000; 3.23436474609375; 0.0030457997639973962
1723053646032780000; 3.22936953125; 0.003047507731119792
1723053646032790000; 3.224387890625; 0.0030490539550781254
1723053646032800000; 3.2193857421875003; 0.003050755818684896
1723053646032810000; 3.2143742187499997; 0.0030521718343098957
1723053646032820000; 3.209362890625; 0.003053707885742188
1723053646032830000; 3.2044375976562502; 0.003055003865559896
1723053646032840000; 3.19943525390625; 0.0030565439860026043
1723053646032850000; 3.1944306640625; 0.0030580169677734375
1723053646032860000; 3.1894037109375; 0.0030596140543619793
1723053646032870000; 3.1843778320312497; 0.003061041259765625
1723053646032880000; 3.179373828125; 0.0030623819986979168
1723053646032890000; 3.1743619140625; 0.0030635121663411457
